# Wavelength [nm],one_counts_500avgs_8ms
353.87577430089004,334.14396003408336
354.66425350278223,363.1234100834191
355.45265786845994,401.87519656190443
356.24098739792316,454.78121592245697
357.0292420911719,527.8406990160491
357.8174219482062,622.1466079306681
358.60552696902596,744.097935380252
359.39355715363126,899.4084441538599
360.1815125020221,1089.9462056610496
360.96939301419843,1320.3454065722049
361.7571986901603,1588.8466354817895
362.5449295299077,1897.225638284714
363.3325855334406,2236.886577577261
364.120166700759,2596.7202341495044
364.90767303186294,2959.4829533300945
365.6951045267524,3309.4338197480665
366.4824611854274,3631.114019729909
367.2697430078879,3901.456780188365
368.0569499941339,4117.010261595593
368.84408214416544,4265.334497545355
369.6311394579825,4354.666479085473
370.4181219355851,4393.468311214232
371.2050295769732,4388.045455791957
371.9918623821468,4346.305205705783
372.7786203511059,4287.5747333807485
373.5653034838506,4222.707779445364
374.35191178038076,4160.366836349537
375.13844524069646,4104.691767651217
375.92490386479767,4058.016650308936
376.7112876526844,4031.5396043885003
377.49759660435666,4031.901134742755
378.28383071981443,4064.785617169196
379.0699899990577,4147.291137793818
379.85607444208654,4288.789891142979
380.64208404890087,4500.60948344426
381.4280188195007,4797.38380060914
382.2138787538861,5192.691390320078
382.999663852057,5695.181657218738
383.7853741140134,6313.83736484026
384.5710095397553,7048.2769600036245
385.3565701292828,7908.505307400295
386.14205588259574,8866.38795786636
386.92746679969423,9897.444941677471
387.71280288057824,10975.035927389576
388.49806412524777,12058.442641412395
389.2832505337028,13087.569454669445
390.0683621059434,14002.575334374778
390.85339884196947,14765.731115032022
391.63836074178107,15328.922716573714
392.4232478053782,15672.841096097074
393.20806003276084,15777.538863998174
393.992797423929,15668.435796440877
394.7774599788827,15385.62394326683
395.5620476976219,14946.018714503443
396.3465605801466,14407.847051729475
397.13099862645686,13810.596731556703
397.9153618365526,13221.378606984006
398.6996502104339,12646.445161367945
399.4838637481007,12130.334381419281
400.268002449553,11682.920932245692
401.05206631479086,11324.939505913073
401.8360553438142,11064.549630236543
402.6199695366231,10892.549603054495
403.4038088932175,10808.387176387481
404.1875734135974,10810.50551238176
404.97126309776286,10897.45978547997
405.7548779457138,11059.691609839858
406.5384179574503,11300.012960874692
407.3218831329723,11606.319149741921
408.1052734722798,11988.364224571971
408.88858897537284,12439.242657834262
409.6718296422514,12965.448931829096
410.45499547291547,13555.120394918156
411.23808646736506,14233.837184253898
412.0211026256002,14978.168783952491
412.8040439476208,15793.345223922424
413.58691043342697,16673.911504952448
414.36970208301864,17625.591375630072
415.15241889639583,18606.386294348777
415.93506087355854,19618.35668712769
416.7176280145068,20613.06908067405
417.5001203192405,21580.97334690983
418.2825377877598,22487.769480618495
419.0648804200646,23298.467607970608
419.8471482161549,23989.901884439463
420.6293411760307,24538.161408801978
421.41145929969207,24949.718267973214
422.19350258713894,25203.086430499057
422.9754710383713,25302.087080977308
423.75736465338923,25279.6139421413
424.53918343219266,25150.17446980402
425.3209273747816,24943.11714579341
426.10259648115607,24681.93629746735
426.88419075131605,24409.938001731523
427.66571018526156,24165.444542176196
428.4471547829926,23952.558185859983
429.2285245445091,23813.735177951083
430.0098194698112,23760.49372022119
430.7910395588988,23822.63315019591
431.5721848117719,23996.725075708055
432.3532552284305,24307.917322395526
433.13425080887464,24758.755513092612
433.9151715531043,25327.655688435705
434.6960174611195,26022.38729907978
435.4767885329202,26819.426302300257
436.2574847685064,27698.132057000472
437.03810616787814,28624.86905910957
437.8186527310354,29532.816048399425
438.5991244579782,30394.197085122385
439.3795213487065,31125.538829076213
440.1598434032203,31728.369567337006
440.94009062151963,32115.724938594143
441.7202630036045,32250.485766173897
442.50036054947486,32131.838897271275
443.28038325913076,31784.516440699288
444.0603311325722,31213.909253974947
444.8402041697991,30477.659766300883
445.62000237081156,29632.342845631694
446.39972573560954,28738.157206400687
447.17937426419303,27868.144759128234
447.95894795656204,27090.325088165704
448.7384468127166,26445.863917457285
449.5178708326566,25979.023517483078
450.2972200163822,25723.91346844986
451.0764943638933,25694.90037866257
451.8556938751899,25878.728067121032
452.63481855027203,26302.293051334902
453.4138683891397,26956.864724579034
454.19284339179285,27809.106699970947
454.97174355823154,28875.180225404747
455.75056888845575,30121.984027471877
456.5293193824655,31565.983284591184
457.3079950402607,33161.284310175455
458.0865958618415,34909.659379416975
458.8651218472078,36777.689409828236
459.6435729963596,38749.67036887274
460.4219493092969,40781.58047523362
461.20025078601975,42861.74375870372
461.9784774265281,44940.07533315932
462.756629230822,46950.92516080796
463.5347061989014,48877.7036485373
464.3127083307663,50628.61762467984
465.09063562641677,52150.33860618063
465.86848808585273,53417.436021739566
466.6462657090742,54446.9350672187
467.4239684960812,55142.293395458444
468.20159644687374,55469.87777833036
468.9791495614518,55453.022893211935
469.75662783981534,55141.67646614107
470.5340312819644,54536.518002854005
471.311359887899,53668.324704499784
472.08861365761913,52567.055035800455
472.8657925911248,51318.12734445063
473.64289668841593,49959.96900972533
474.4199259494926,48557.48433986146
475.1968803743548,47139.641543977144
475.9737599630025,45714.42650275071
476.75056471543576,44390.553963751365
477.5272946316545,43157.766129489886
478.3039497116588,42027.42700636297
479.0805299554486,41019.816000145816
479.8570353630239,40132.34083950179
480.63346593438473,39385.66124475247
481.4098216695311,38757.32131999546
482.18610256846296,38246.20669266724
482.96230863118035,37851.528093933885
483.73843985768326,37563.25218752789
484.5144962479717,37365.73050457258
485.29047780204564,37265.82689058862
486.0663845199051,37246.446257118216
486.8422164015501,37311.611673736
487.6179734469806,37443.30938502495
488.39365565619664,37621.70164664586
489.1692630291982,37895.13871367125
489.94479556598526,38203.18910088179
490.72025326655785,38555.830362920715
491.49563613091595,38955.643824759725
492.2709441590596,39390.58209229852
493.0461773509887,39845.329763732116
493.8213357067034,40338.038350336625
494.5964192262036,40836.751562364094
495.3714279094893,41360.256980276485
496.1463617565605,41906.576960872204
496.92122076741725,42455.678448987754
497.6960049420595,43021.41774017521
498.4707142804873,43559.88746385447
499.2453487827006,44121.383384905275
500.0199084486994,44674.42355475677
500.79439327848377,45191.88704454985
501.56880327205363,45714.544511993015
502.343138429409,46250.89495735066
503.1173987505499,46760.7865442908
503.89158423547633,47269.713535167044
504.66569488418827,47741.9867005204
505.43973069668573,48233.465175631885
506.2136916729687,48693.10122518451
506.9875778130372,49122.70017620597
507.7613891168912,49536.278509419346
508.53512558453076,49918.96023539066
509.3087872159558,50278.08143802649
510.0823740111664,50599.682105247055
510.8558859701625,50912.00795612627
511.6293230929441,51190.77320048946
512.4026853795112,51458.0196381711
513.1759728298639,51715.2015656216
513.9491854440021,51972.19057228207
514.7223232219258,52161.11526310735
515.495386163635,52384.45395899425
516.2683742691297,52557.739545126926
517.04128753841,52754.4851396156
517.8141259714757,52935.703910165445
518.586889568327,53113.338612828666
519.3595783289638,53271.24517482132
520.1321922533862,53430.975915065676
520.904731341594,53578.50705796791
521.6771955935874,53742.08115125204
522.4495850093663,53905.596468874464
523.2218995889307,54053.72506233925
523.9941393322806,54215.207569057755
524.7663042394161,54379.46967008878
525.538394310337,54559.97440074937
526.3104095450435,54716.08824974172
527.0823499435355,54867.12712048751
527.854215505813,55033.38501081481
528.6260062318761,55196.215535146635
529.3977221217247,55355.66484454665
530.1693631753587,55498.17889392304
530.9409293927783,55685.70470030089
531.7124207739835,55858.84414455812
532.4838373189741,55989.548168223926
533.2551790277503,56161.51903395556
534.026445900312,56293.55062435991
534.7976379366592,56462.74087118752
535.5687551367919,56612.43406831454
536.3397975007101,56750.67675225157
537.1107650284139,56885.142163921475
537.8816577199032,57048.08471759435
538.652475575178,57199.36665968268
539.4232185942383,57341.73179387692
540.1938867770841,57494.04569402361
540.9644801237155,57656.6356895044
541.7349986341324,57785.29024426845
542.5054423083348,57921.03952173169
543.2758111463227,58053.359956338325
544.0461051480961,58173.73230511984
544.8163243136551,58290.65808581513
545.5864686429995,58384.093437311094
546.3565381361295,58460.79951125814
547.126532793045,58530.20953695282
547.8964526137461,58572.78069151956
548.6662975982326,58604.64129733079
549.4360677465047,58640.860810025246
550.2057630585623,58629.96349214149
550.9753835344054,58620.49106662712
551.744929174034,58623.100572562194
552.5143999774482,58599.89037920953
553.2837959446479,58547.57482925694
554.053117075633,58502.7469336718
554.8223633704038,58443.77821385813
555.59153482896,58381.890972123874
556.3606314513017,58300.56494992985
557.129653237429,58205.17793514873
557.8986001873418,58100.21377709049
558.6674723010401,57997.00648353779
559.4362695785239,57862.13843505327
560.2049920197933,57753.55482011678
560.9736396248481,57617.79788052601
561.7422123936885,57467.49067944021
562.5107103263144,57335.08306766693
563.2791334227259,57178.26218670613
564.0474816829228,57065.35441829349
564.8157551069053,56915.87479567033
565.5839536946733,56744.775231120526
566.3520774462268,56615.18011704291
567.1201263615658,56476.24355522791
567.8881004406903,56316.02069058474
568.6559996836004,56177.91322452847
569.423824090296,56033.48529984455
570.1915736607771,55891.95877705869
570.9592483950437,55765.107298764044
571.7268482930958,55626.712069505564
572.4943733549335,55520.3692854578
573.2618235805567,55390.92250780138
574.0291989699654,55278.01419047699
574.7964995231596,55170.732072081155
575.5637252401393,55069.73402699132
576.3308761209046,54967.673104151385
577.0979521654554,54906.704294060706
577.8649533737916,54806.04332766397
578.6318797459135,54731.04925167275
579.3987312818208,54678.11422033592
580.1655079815137,54626.64385587102
580.932209844992,54574.61087038615
581.6988368722559,54535.756324464644
582.4653890633053,54515.81990459114
583.2318664181403,54496.11332614127
583.9982689367607,54470.46254237782
584.7645966191667,54457.75074570404
585.5308494653582,54447.854952406284
586.2970274753352,54448.78234341559
587.0631306490977,54438.189510013326
587.8291589866458,54443.33888929817
588.5951124879793,54428.38380611877
589.3609911530984,54433.02835272066
590.126794982003,54414.64104622183
590.8925239746932,54426.70206861934
591.6581781311688,54426.44425878138
592.42375745143,54422.41016100759
593.1892619354767,54434.56343397502
593.9546915833089,54449.50106798663
594.7200463949266,54497.851619010675
595.4853263703299,54543.97492057759
596.2505315095186,54590.94274590337
597.0156618124929,54652.812276576675
597.7807172792527,54739.81053473256
598.545697909798,54832.287515381046
599.3106037041289,54953.64731360673
600.0754346622452,55066.66249028818
600.8401907841471,55204.68700174469
601.6048720698345,55346.60619242624
602.3694785193074,55500.74498727034
603.1340101325659,55674.01483705862
603.8984669096099,55828.18943062979
604.6628488504393,55966.95583890038
605.4271559550543,56125.30494480262
606.1913882234549,56279.95434543472
606.9555456556409,56423.98871185113
607.7196282516124,56580.459953527374
608.4836360113695,56702.28200251622
609.2475689349121,56851.99858447374
610.0114270222402,56985.924222438676
610.7752102733539,57119.37718540611
611.538918688253,57258.34837673744
612.3025522669377,57360.16578981116
613.0661110094079,57479.138886330715
613.8295949156636,57595.874429186435
614.5930039857049,57707.34361460742
615.3563382195316,57834.82858820017
616.1195976171439,57919.03709107873
616.8827821785417,57993.73818861248
617.645891903725,58118.31205812176
618.4089267926938,58181.880385251294
619.1718868454482,58238.83941933116
619.934772061988,58319.80236774018
620.6975824423134,58356.407432203974
621.4603179864243,58400.87224164199
622.2229786943208,58457.56866952489
622.9855645660027,58515.55410026134
623.7480756014702,58615.00591134572
624.5105118007232,58706.15633415282
625.2728731637617,58797.23346374861
626.0351596905857,58918.284892082826
626.7973713811953,59058.339969318564
627.5595082355903,59188.55836330947
628.3215702537709,59358.95496586183
629.083557435737,59510.897902796685
629.8454697814886,59643.55998221279
630.6073072910258,59791.42589008677
631.3690699643485,59915.383788375555
632.1307578014566,60053.791862119615
632.8923708023503,60168.26708668235
633.6539089670296,60249.7014670722
634.4153722954943,60321.23378681912
635.1767607877446,60377.50018916266
635.9380744437804,60417.4963565236
636.6993132636017,60428.68688917341
637.4604772472085,60432.791998408895
638.2215663946008,60402.677609777114
638.9825807057787,60368.67244094752
639.743520180742,60327.31089827087
640.504384819491,60266.433949193066
641.2651746220254,60175.766584103345
642.0258895883453,60079.87695365426
642.7865297184508,59947.653934226706
643.5470950123417,59820.035051504405
644.3075854700182,59644.289243030966
645.0680010914803,59482.22637885382
645.8283418767278,59294.60141749367
646.5886078257608,59089.92178867686
647.3487989385794,58890.71430978395
648.1089152151835,58650.2845849423
648.8689566555731,58418.43370743518
649.6289232597483,58155.39240994441
650.3888150277089,57914.23503905184
651.1486319594551,57633.851930327015
651.9083740549868,57361.02854953931
652.668041314304,57075.055450120504
653.4276337374067,56800.1250013196
654.187151324295,56486.66740522371
654.9465940749687,56175.06001083567
655.705961989428,55900.034685060535
656.4652550676728,55610.58866083467
657.2244733097032,55330.88869502007
657.983616715519,55068.553652481976
658.7426852851204,54785.86015612305
659.5016790185073,54520.30981189886
660.2605979156797,54252.02640182472
661.0194419766376,54006.78502309758
661.778211201381,53789.6224855553
662.53690558991,53579.59207229599
663.2955251422245,53386.18776173322
664.0540698583245,53207.47383842058
664.81253973821,53067.24570774904
665.5709347818811,52923.23343688567
666.3292549893376,52851.79988380757
667.0875003605797,52777.27004814785
667.8456708956073,52722.34921142709
668.6037665944204,52690.793603046055
669.3617874570191,52681.37642779915
670.1197334834033,52700.253831698865
670.8776046735729,52737.35111118578
671.6354010275281,52772.35375769115
672.3931225452689,52810.1518973381
673.1507692267951,52830.45234730208
673.9083410721069,52861.01929335009
674.6658380812041,52883.5733267279
675.4232602540869,52862.76307936293
676.1806075907552,52794.338826663676
676.9378800912091,52698.240694287444
677.6950777554484,52541.46679026863
678.4522005834733,52357.523342145105
679.2092485752837,52108.539531069495
679.9662217308796,51812.40628102914
680.7231200502611,51469.00287530214
681.479943533428,51093.23331556305
682.2366921803805,50670.9865953043
682.9933659911185,50243.15081185374
683.749964965642,49799.21055034648
684.506489103951,49329.90693523072
685.2629384060456,48870.423272532775
686.0193128719256,48413.80806053478
686.7756125015912,47970.86473862656
687.5318372950424,47594.21638534094
688.287987252279,47220.81314953441
689.0440623733011,46894.667101818595
689.8000626581088,46650.575205268586
690.555988106702,46455.18479897058
691.3118387190807,46351.33582472778
692.0676144952449,46294.38253618759
692.8233154351947,46321.232053953514
693.5789415389299,46457.86627661979
694.3344928064507,46639.041723421535
695.089969237757,46901.63795007663
695.8453708328489,47236.76859848286
696.6006975917262,47627.65862749816
697.3559495143891,48103.5069039428
698.1111266008375,48596.12627210287
698.8662288510714,49124.485494984685
699.6212562650908,49720.11849849411
700.3762088428957,50333.69293233786
701.1310865844862,50932.381010868135
701.8858894898622,51521.71911812263
702.6406175590237,52073.52482168997
703.3952707919707,52600.61761669862
704.1498491887032,53086.33357493754
704.9043527492213,53465.7329671275
705.6587814735249,53770.89772949859
706.413135361614,53998.42602094231
707.1674144134886,54140.82901981719
707.9216186291487,54174.172306841225
708.6757480085944,54155.7058292968
709.4298025518256,54013.76450967718
710.1837822588423,53804.968718136945
710.9376871296445,53535.206570203016
711.6915171642322,53188.20396534674
712.4452723626055,52810.82555768666
713.1989527247642,52402.909260945555
713.9525582507085,51979.20969975016
714.7060889404383,51537.37996197023
715.4595447939537,51119.89806276445
716.2129258112545,50711.621933703056
716.9662319923409,50339.40687751641
717.7194633372128,50017.39123484641
718.4726198458702,49684.47537057772
719.2257015183131,49444.700197282524
719.9787083545416,49242.5341942056
720.7316403545556,49118.29046142212
721.484497518355,49058.025550088016
722.2372798459401,49049.20362248242
722.9899873373106,49114.83460710171
723.7426199924666,49250.6274883863
724.4951778114082,49430.55089574431
725.2476607941353,49646.99377324515
726.0000689406479,49894.86459719538
726.752402250946,50152.16635627706
727.5046607250297,50413.213675253544
728.2568443628988,50659.92646618084
729.0089531645535,50896.32627311403
729.7609871299937,51048.57613759599
730.5129462592195,51132.36563841881
731.2648305522307,51183.383133127645
732.0166400090275,51119.056213828466
732.7683746296098,50928.9014717009
733.5200344139776,50663.21604579854
734.2716193621309,50261.67108226226
735.0231294740697,49766.2490765825
735.7745647497941,49168.829701976865
736.525925189304,48453.04772239857
737.2772107925994,47691.10014997546
738.0284215596803,46877.949578838576
738.7795574905467,46027.91851669243
739.5306185851987,45138.02657589856
740.2816048436362,44216.730994689075
741.0325162658592,43298.220793703185
741.7833528518677,42409.858588802694
742.5341146016617,41523.84506373529
743.2848015152413,40665.58305957849
744.0354135926063,39818.96311429957
744.7859508337569,39043.47729557353
745.5364132386931,38349.22337264933
746.2868008074147,37707.106120105316
747.0371135399218,37163.695097685195
747.7873514362145,36709.22787809642
748.5375144962927,36354.73523215316
749.2876027201564,36146.53882002185
750.0376161078057,36057.008254024215
750.7875546592404,36093.64881808593
751.5374183744607,36249.48671940142
752.2872072534665,36556.9094601134
753.0369212962578,36991.64873525552
753.7865605028346,37589.60982515792
754.536124873197,38284.067716050435
755.2856144073448,39087.27101157819
756.0350291052782,40032.01955753974
756.7843689669971,41095.96773100975
757.5336339925016,42277.10369997535
758.2828241817915,43581.36065282786
759.031939534867,44963.177133563404
759.780980051728,46414.98940036398
760.5299457323745,47960.83855830824
761.2788365768065,49601.33383818345
762.027652585024,51291.48729908697
762.7763937570271,52988.129572656246
763.5250600928157,54631.72250071805
764.2736515923898,56222.635819628726
765.0221682557494,57717.99445037969
765.7706100828946,59045.85143639748
766.5189770738252,60171.790157609146
767.2672692285414,60903.36358444998
768.0154865470431,61258.366526610735
768.7636290293303,61264.051610189024
769.5116966754031,60818.90227672735
770.2596894852613,59962.15743903273
771.0076074589051,58659.05574086228
771.7554505963344,57031.14884360964
772.5032188975492,55088.24332215164
773.2509123625496,52990.86171642603
773.9985309913354,50806.95389429159
774.7460747839068,48648.58930803275
