# Wavelength [nm],shape_counts_500avgs_8ms
353.87577430089004,156.7742319834834
354.66425350278223,159.18114182304672
355.45265786845994,161.68247629173229
356.24098739792316,163.59313397788824
357.0292420911719,166.29738943861906
357.8174219482062,168.60786066053578
358.60552696902596,171.16947213674115
359.39355715363126,173.52816464235187
360.1815125020221,177.2550593716593
360.96939301419843,181.345602420998
361.7571986901603,185.9444496180059
362.5449295299077,188.43373294876596
363.3325855334406,191.27862892876502
364.120166700759,195.35309736991323
364.90767303186294,199.66866001245177
365.6951045267524,203.0781168469302
366.4824611854274,208.08883222384486
367.2697430078879,212.62741026221985
368.0569499941339,217.38497976656504
368.84408214416544,222.4157888793504
369.6311394579825,227.77006408602352
370.4181219355851,233.39958809213735
371.2050295769732,239.0692964159015
371.9918623821468,245.66520036217472
372.7786203511059,251.42330961594473
373.5653034838506,258.0975742376552
374.35191178038076,264.53878242567583
375.13844524069646,272.63951780588445
375.92490386479767,279.9506731683949
376.7112876526844,287.5772603228656
377.49759660435666,295.94520732950707
378.28383071981443,303.9977289272522
379.0699899990577,312.227051143727
379.85607444208654,322.39717570058
380.64208404890087,331.19507886377943
381.4280188195007,340.9573580032382
382.2138787538861,350.55288319394566
382.999663852057,361.06657263273416
383.7853741140134,371.27287034298524
384.5710095397553,382.4736828314706
385.3565701292828,393.32289575118074
386.14205588259574,404.96973303942497
386.92746679969423,416.43575007870174
387.71280288057824,428.49244682541723
388.49806412524777,440.3221175091877
389.2832505337028,453.4496768927341
390.0683621059434,466.69979338008596
390.85339884196947,480.09456676613655
391.63836074178107,494.0197483416263
392.4232478053782,507.9931500946538
393.20806003276084,523.4010602265676
393.992797423929,537.7742788943891
394.7774599788827,553.2705934588406
395.5620476976219,569.2651670817742
396.3465605801466,585.4948099767955
397.13099862645686,601.6661891426419
397.9153618365526,619.7522530820772
398.6996502104339,638.4551169579559
399.4838637481007,655.8399999896736
400.268002449553,673.3635112228181
401.05206631479086,691.9659162858683
401.8360553438142,712.2780775709298
402.6199695366231,732.150239141084
403.4038088932175,752.665315688814
404.1875734135974,774.1628429321828
404.97126309776286,794.5031196823666
405.7548779457138,816.8042846403961
406.5384179574503,839.1677252904674
407.3218831329723,861.7099730481505
408.1052734722798,885.0096493204967
408.88858897537284,909.2515891622078
409.6718296422514,934.6005377536377
410.45499547291547,959.5717651794007
411.23808646736506,985.3044303227839
412.0211026256002,1012.3369765428928
412.8040439476208,1037.834549022953
413.58691043342697,1064.1879843430263
414.36970208301864,1094.0191615812562
415.15241889639583,1120.8125547187
415.93506087355854,1151.194180636657
416.7176280145068,1181.6039079316492
417.5001203192405,1210.5610310002826
418.2825377877598,1242.1821873802471
419.0648804200646,1271.900699312947
419.8471482161549,1302.9793358315953
420.6293411760307,1335.7937887769785
421.41145929969207,1367.7824687574434
422.19350258713894,1400.2090873870873
422.9754710383713,1433.3408511341422
423.75736465338923,1466.9447023438056
424.53918343219266,1500.7172650259859
425.3209273747816,1537.6781740775982
426.10259648115607,1574.3396666591402
426.88419075131605,1610.882560674483
427.66571018526156,1648.64488699416
428.4471547829926,1688.46239835415
429.2285245445091,1727.1527518855266
430.0098194698112,1765.5617510310065
430.7910395588988,1806.3071875521066
431.5721848117719,1846.3031504884627
432.3532552284305,1888.2578201569627
433.13425080887464,1928.838218118515
433.9151715531043,1973.7117681734492
434.6960174611195,2015.5977977023385
435.4767885329202,2061.0597267644325
436.2574847685064,2106.1679417104056
437.03810616787814,2151.9269164589764
437.8186527310354,2199.24069029683
438.5991244579782,2244.9872910855333
439.3795213487065,2293.0962882408244
440.1598434032203,2341.096611256241
440.94009062151963,2391.1197714826567
441.7202630036045,2439.650055905381
442.50036054947486,2489.06209151698
443.28038325913076,2541.0392930562816
444.0603311325722,2591.2504274734865
444.8402041697991,2644.2617387519704
445.62000237081156,2697.4475666596286
446.39972573560954,2749.072202324281
447.17937426419303,2803.6516574370094
447.95894795656204,2858.7912750499618
448.7384468127166,2912.6288679060694
449.5178708326566,2968.979203273438
450.2972200163822,3026.522462194707
451.0764943638933,3083.9990637035826
451.8556938751899,3141.5294876345956
452.63481855027203,3197.2275966694615
453.4138683891397,3258.5559396445165
454.19284339179285,3319.1767459781277
454.97174355823154,3379.931722050168
455.75056888845575,3440.5094807580595
456.5293193824655,3500.887899697952
457.3079950402607,3564.3793746121833
458.0865958618415,3627.325980428245
458.8651218472078,3691.648079352401
459.6435729963596,3755.3589141329367
460.4219493092969,3820.137820948367
461.20025078601975,3885.0668118359645
461.9784774265281,3955.020777218298
462.756629230822,4020.9890195261896
463.5347061989014,4092.897946731302
464.3127083307663,4160.308956443295
465.09063562641677,4228.452529607537
465.86848808585273,4297.872746886884
466.6462657090742,4371.1565833657
467.4239684960812,4443.286768627295
468.20159644687374,4515.4984499605125
468.9791495614518,4584.877469415227
469.75662783981534,4659.710557695986
470.5340312819644,4732.9701391951085
471.311359887899,4808.02441468516
472.08861365761913,4884.788665609718
472.8657925911248,4959.593971780981
473.64289668841593,5037.800397216595
474.4199259494926,5119.891659644297
475.1968803743548,5200.636236385913
475.9737599630025,5282.4821818644805
476.75056471543576,5364.433388791781
477.5272946316545,5445.738770557413
478.3039497116588,5533.864435946073
479.0805299554486,5619.591126307626
479.8570353630239,5706.011328167244
480.63346593438473,5795.020226524455
481.4098216695311,5882.09008813977
482.18610256846296,5967.435659806496
482.96230863118035,6055.928322419606
483.73843985768326,6146.59185473887
484.5144962479717,6237.669497434386
485.29047780204564,6328.263551270231
486.0663845199051,6419.821911595009
486.8422164015501,6516.955784097243
487.6179734469806,6611.827210689773
488.39365565619664,6702.611297301575
489.1692630291982,6802.951843995297
489.94479556598526,6894.930860390468
490.72025326655785,6990.840706787319
491.49563613091595,7090.125407827672
492.2709441590596,7184.537911595099
493.0461773509887,7274.576378321605
493.8213357067034,7367.953137840489
494.5964192262036,7457.333934706612
495.3714279094893,7552.40141038821
496.1463617565605,7645.234640587373
496.92122076741725,7739.105954991511
497.6960049420595,7834.03711561966
498.4707142804873,7929.239165742557
499.2453487827006,8027.662579314467
500.0199084486994,8132.24137640122
500.79439327848377,8228.663390500858
501.56880327205363,8332.811949748688
502.343138429409,8442.529036630955
503.1173987505499,8555.799498256556
503.89158423547633,8670.560188513093
504.66569488418827,8788.99805929811
505.43973069668573,8914.128980808902
506.2136916729687,9037.443771941302
506.9875778130372,9164.369402025804
507.7613891168912,9294.62398941436
508.53512558453076,9421.642204532682
509.3087872159558,9554.773710713987
510.0823740111664,9681.3122847176
510.8558859701625,9808.014059928648
511.6293230929441,9938.270681655411
512.4026853795112,10066.00124416153
513.1759728298639,10197.918742105288
513.9491854440021,10330.793117907684
514.7223232219258,10457.938404875078
515.495386163635,10592.136064137721
516.2683742691297,10721.599981026724
517.04128753841,10855.449878604357
517.8141259714757,10990.80208776984
518.586889568327,11119.639694213436
519.3595783289638,11252.147520122311
520.1321922533862,11384.905377822832
520.904731341594,11522.592681123922
521.6771955935874,11658.321455116766
522.4495850093663,11797.192644093553
523.2218995889307,11930.591062983014
523.9941393322806,12064.594066235502
524.7663042394161,12208.867283130097
525.538394310337,12349.640347282153
526.3104095450435,12488.62425428052
527.0823499435355,12622.589078260187
527.854215505813,12764.091909991517
528.6260062318761,12908.067851022044
529.3977221217247,13039.696230917767
530.1693631753587,13179.322494168833
530.9409293927783,13325.490731749624
531.7124207739835,13464.25722364984
532.4838373189741,13601.399936525182
533.2551790277503,13743.051802425241
534.026445900312,13877.63974255886
534.7976379366592,14021.673214241278
535.5687551367919,14166.298634053715
536.3397975007101,14302.953614751128
537.1107650284139,14442.187268107944
537.8816577199032,14591.118807754892
538.652475575178,14739.887740836146
539.4232185942383,14886.348158273917
540.1938867770841,15040.302127353754
540.9644801237155,15195.08588682138
541.7349986341324,15347.882528688404
542.5054423083348,15506.900719409658
543.2758111463227,15664.574648288613
544.0461051480961,15823.158509135372
544.8163243136551,15987.833080021554
545.5864686429995,16144.262607963701
546.3565381361295,16302.815453960446
547.126532793045,16462.775385414614
547.8964526137461,16621.18475557181
548.6662975982326,16778.894171334334
549.4360677465047,16944.577030557615
550.2057630585623,17094.796577686026
550.9753835344054,17258.470366638256
551.744929174034,17424.354280526433
552.5143999774482,17584.658332887717
553.2837959446479,17739.448580798777
554.053117075633,17907.26305820708
554.8223633704038,18070.12164045586
555.59153482896,18234.90914936404
556.3606314513017,18404.259334183018
557.129653237429,18562.89595320068
557.8986001873418,18724.852880486233
558.6674723010401,18888.815290117862
559.4362695785239,19048.720769093234
560.2049920197933,19219.486026739694
560.9736396248481,19384.853783537463
561.7422123936885,19547.80287477335
562.5107103263144,19720.49385457968
563.2791334227259,19883.46267582436
564.0474816829228,20056.688435800665
564.8157551069053,20229.859751827404
565.5839536946733,20387.198489285325
566.3520774462268,20565.85479778339
567.1201263615658,20736.50839775593
567.8881004406903,20892.50672152133
568.6559996836004,21077.02299030747
569.423824090296,21243.120844049627
570.1915736607771,21416.270085940127
570.9592483950437,21584.430380058984
571.7268482930958,21754.905036271837
572.4943733549335,21936.502944963937
573.2618235805567,22109.862678264715
574.0291989699654,22278.00162754127
574.7964995231596,22453.27944776204
575.5637252401393,22626.46422993522
576.3308761209046,22796.680627440695
577.0979521654554,22981.69548595622
577.8649533737916,23145.8847199627
578.6318797459135,23318.89049266929
579.3987312818208,23500.340265639934
580.1655079815137,23671.457857245634
580.932209844992,23850.44660106983
581.6988368722559,24024.731728147817
582.4653890633053,24203.356938103912
583.2318664181403,24386.280074356262
583.9982689367607,24554.248945871215
584.7645966191667,24734.434694905616
585.5308494653582,24902.781694326874
586.2970274753352,25081.105269544114
587.0631306490977,25244.183964169213
587.8291589866458,25412.049240306158
588.5951124879793,25576.357777459238
589.3609911530984,25738.457748296194
590.126794982003,25895.16625994248
590.8925239746932,26049.54641121428
591.6581781311688,26201.5418785282
592.42375745143,26352.5822461317
593.1892619354767,26505.478289450617
593.9546915833089,26663.717944931144
594.7200463949266,26834.17515671737
595.4853263703299,26996.229054719646
596.2505315095186,27161.949900822478
597.0156618124929,27333.54719156032
597.7807172792527,27507.19469957904
598.545697909798,27693.89475140749
599.3106037041289,27893.437023116643
600.0754346622452,28082.796348757784
600.8401907841471,28293.1180819361
601.6048720698345,28490.542143877323
602.3694785193074,28708.701655421108
603.1340101325659,28927.033951413672
603.8984669096099,29141.0106526187
604.6628488504393,29340.057590529937
605.4271559550543,29560.83787226537
606.1913882234549,29763.009595161144
606.9555456556409,29974.14689703248
607.7196282516124,30186.231187626203
608.4836360113695,30381.93514290002
609.2475689349121,30598.647615137415
610.0114270222402,30791.67229168874
610.7752102733539,30999.2723414004
611.538918688253,31195.992163456078
612.3025522669377,31385.73504631432
613.0661110094079,31576.310602556172
613.8295949156636,31762.686597830834
614.5930039857049,31961.64467042121
615.3563382195316,32158.54941193253
616.1195976171439,32332.653110432824
616.8827821785417,32502.590648879614
617.645891903725,32698.289115420295
618.4089267926938,32849.66821623272
619.1718868454482,33017.186961892454
619.934772061988,33179.21314074792
620.6975824423134,33332.66194935527
621.4603179864243,33484.608787376616
622.2229786943208,33639.40036615468
622.9855645660027,33791.428750390194
623.7480756014702,33974.308068677165
624.5105118007232,34146.31471329662
625.2728731637617,34338.63138409006
626.0351596905857,34535.122303945296
626.7973713811953,34749.19165463894
627.5595082355903,34958.14891147916
628.3215702537709,35193.14775175947
629.083557435737,35417.52925054646
629.8454697814886,35651.5789981895
630.6073072910258,35874.42205631225
631.3690699643485,36108.98327770039
632.1307578014566,36341.249001512675
632.8923708023503,36568.52908965672
633.6539089670296,36780.81190164882
634.4153722954943,36993.95547351846
635.1767607877446,37211.409778135494
635.9380744437804,37421.63659191405
636.6993132636017,37622.114393630465
637.4604772472085,37830.692269119674
638.2215663946008,38016.776830645365
638.9825807057787,38207.19476164649
639.743520180742,38405.55534098633
640.504384819491,38606.081393959554
641.2651746220254,38781.89700460055
642.0258895883453,38974.189259537605
642.7865297184508,39153.28417335325
643.5470950123417,39348.025263604104
644.3075854700182,39523.68232299015
645.0680010914803,39718.06473341767
645.8283418767278,39898.53228169847
646.5886078257608,40069.31180714218
647.3487989385794,40261.13950739482
648.1089152151835,40422.43343693728
648.8689566555731,40609.552083913586
649.6289232597483,40779.041067365804
650.3888150277089,40967.11439323428
651.1486319594551,41132.960328299705
651.9083740549868,41302.69345224137
652.668041314304,41473.015733306536
653.4276337374067,41660.29097162163
654.187151324295,41817.29246051526
654.9465940749687,41979.38124764009
655.705961989428,42166.372037125046
656.4652550676728,42336.703088959686
657.2244733097032,42509.23444179218
657.983616715519,42687.60882497519
658.7426852851204,42853.15839763484
659.5016790185073,43027.59719413258
660.2605979156797,43195.9260720159
661.0194419766376,43356.22954421395
661.778211201381,43533.08786220737
662.53690558991,43693.020972548846
663.2955251422245,43860.395321770324
664.0540698583245,44024.06356243445
664.81253973821,44198.95324112129
665.5709347818811,44347.95132087168
666.3292549893376,44534.534585563764
667.0875003605797,44696.404969517855
667.8456708956073,44856.09740333036
668.6037665944204,45005.52632294302
669.3617874570191,45166.91081489541
670.1197334834033,45324.4783747231
670.8776046735729,45490.93191322686
671.6354010275281,45646.140246723895
672.3931225452689,45807.16862278787
673.1507692267951,45956.114853088955
673.9083410721069,46115.92276991534
674.6658380812041,46286.39018631266
675.4232602540869,46442.558319314674
676.1806075907552,46598.59169538539
676.9378800912091,46749.24136541891
677.6950777554484,46892.86844549198
678.4522005834733,47051.14935933584
679.2092485752837,47191.04870761215
679.9662217308796,47333.054710809854
680.7231200502611,47472.07144081856
681.479943533428,47623.14947923004
682.2366921803805,47771.88832025831
682.9933659911185,47924.15569508522
683.749964965642,48080.126868097934
684.506489103951,48217.64138660392
685.2629384060456,48365.43294513961
686.0193128719256,48513.852687065475
686.7756125015912,48648.69472458548
687.5318372950424,48817.944273578156
688.287987252279,48950.805902447035
689.0440623733011,49084.422076256364
689.8000626581088,49233.68540597336
690.555988106702,49372.80319725346
691.3118387190807,49522.272545542044
692.0676144952449,49649.781503803744
692.8233154351947,49766.22830773284
693.5789415389299,49930.87641468571
694.3344928064507,50064.28703044276
695.089969237757,50196.24204075496
695.8453708328489,50350.12228996555
696.6006975917262,50465.826984506675
697.3559495143891,50615.56497082506
698.1111266008375,50742.31541645303
698.8662288510714,50854.50982628759
699.6212562650908,50997.89931429446
700.3762088428957,51138.717145587994
701.1310865844862,51262.75014528831
701.8858894898622,51388.31870915623
702.6406175590237,51511.58113083694
703.3952707919707,51637.13546008187
704.1498491887032,51777.65082657354
704.9043527492213,51884.11830173762
705.6587814735249,52009.02636084005
706.413135361614,52128.69664767574
707.1674144134886,52273.45322238191
707.9216186291487,52373.34824157427
708.6757480085944,52526.738703479656
709.4298025518256,52649.31559570104
710.1837822588423,52770.53210337095
710.9376871296445,52887.00738661316
711.6915171642322,52976.21899513864
712.4452723626055,53090.54073727494
713.1989527247642,53190.82510252844
713.9525582507085,53302.48049310791
714.7060889404383,53367.66487688464
715.4595447939537,53448.072839203705
716.2129258112545,53521.543598747565
716.9662319923409,53595.40380541614
717.7194633372128,53656.37044590349
718.4726198458702,53682.97387348703
719.2257015183131,53741.22878964064
719.9787083545416,53784.952046954044
720.7316403545556,53837.85190905186
721.484497518355,53914.08256297137
722.2372798459401,53981.918389277795
722.9899873373106,54081.586410291675
723.7426199924666,54205.72913706486
724.4951778114082,54325.38994110542
725.2476607941353,54448.5860830294
726.0000689406479,54562.72696721595
726.752402250946,54703.06801608043
727.5046607250297,54839.05437809181
728.2568443628988,54959.568429507584
729.0089531645535,55113.29606563524
729.7609871299937,55229.40694183166
730.5129462592195,55335.047999159135
731.2648305522307,55481.98439672149
732.0166400090275,55602.68178504154
732.7683746296098,55681.69424139137
733.5200344139776,55790.267693027105
734.2716193621309,55866.54857814867
735.0231294740697,55937.52901658744
735.7745647497941,55998.554622058655
736.525925189304,56033.44256826566
737.2772107925994,56098.68375007622
738.0284215596803,56189.53470844812
738.7795574905467,56276.451641427135
739.5306185851987,56383.14987511869
740.2816048436362,56471.92894680805
741.0325162658592,56577.479562267574
741.7833528518677,56732.01440713873
742.5341146016617,56867.44672678107
743.2848015152413,56997.83148319057
744.0354135926063,57116.370715316676
744.7859508337569,57244.260895683314
745.5364132386931,57399.30626783283
746.2868008074147,57558.14221012979
747.0371135399218,57696.46147261646
747.7873514362145,57822.745685651134
748.5375144962927,57940.09004897807
749.2876027201564,58097.338179047576
750.0376161078057,58274.902019783905
750.7875546592404,58425.85605043177
751.5374183744607,58577.62817127285
752.2872072534665,58759.0823992343
753.0369212962578,58956.44618726941
753.7865605028346,59184.30708296374
754.536124873197,59371.28700855905
755.2856144073448,59543.95531559246
756.0350291052782,59724.242239308536
756.7843689669971,59925.68888063863
757.5336339925016,60102.917122308914
758.2828241817915,60306.41916818827
759.031939534867,60470.537470638665
759.780980051728,60594.31606184978
760.5299457323745,60723.87046122005
761.2788365768065,60877.29889870653
762.027652585024,61021.09528599781
762.7763937570271,61158.55893942804
763.5250600928157,61256.51605230754
764.2736515923898,61332.945393662354
765.0221682557494,61441.455620318244
765.7706100828946,61555.485275345614
766.5189770738252,61685.396287368676
767.2672692285414,61725.187594938
768.0154865470431,61752.11092699712
768.7636290293303,61831.26741079765
769.5116966754031,61892.69560725602
770.2596894852613,61943.9469831312
771.0076074589051,61972.56668438988
771.7554505963344,62024.279686705195
772.5032188975492,62032.9974468809
773.2509123625496,62077.55106482984
773.9985309913354,62100.851234857204
